# Emin Emax (TeV) Dmin Dmax (deg) effA (m^2)
1.00000e-01 1.25893e-01 30 90 5.79375e-04
1.25893e-01 1.58489e-01 30 90 1.72264e-03
1.58489e-01 1.99526e-01 30 90 4.21583e-03
1.99526e-01 2.51189e-01 30 90 8.93831e-03
2.51189e-01 3.16228e-01 30 90 1.72786e-02
3.16228e-01 3.98107e-01 30 90 3.08468e-02
3.98107e-01 5.01187e-01 30 90 5.25662e-02
5.01187e-01 6.30957e-01 30 90 8.56972e-02
6.30957e-01 7.94328e-01 30 90 1.37938e-01
7.94328e-01 1.00000e+00 30 90 2.13396e-01
1.00000e+00 1.25893e+00 30 90 3.27879e-01
1.25893e+00 1.58489e+00 30 90 4.94495e-01
1.58489e+00 1.99526e+00 30 90 7.34421e-01
1.99526e+00 2.51189e+00 30 90 1.07392e+00
2.51189e+00 3.16228e+00 30 90 1.52604e+00
3.16228e+00 3.98107e+00 30 90 2.16396e+00
3.98107e+00 5.01187e+00 30 90 3.01756e+00
5.01187e+00 6.30957e+00 30 90 4.10302e+00
6.30957e+00 7.94328e+00 30 90 5.50644e+00
7.94328e+00 1.00000e+01 30 90 7.25594e+00
1.00000e+01 1.25893e+01 30 90 9.53791e+00
1.25893e+01 1.58489e+01 30 90 1.23689e+01
1.58489e+01 1.99526e+01 30 90 1.56015e+01
1.99526e+01 2.51189e+01 30 90 1.95758e+01
2.51189e+01 3.16228e+01 30 90 2.38431e+01
3.16228e+01 3.98107e+01 30 90 2.89265e+01
3.98107e+01 5.01187e+01 30 90 3.48003e+01
5.01187e+01 6.30957e+01 30 90 4.04796e+01
6.30957e+01 7.94328e+01 30 90 4.70667e+01
7.94328e+01 1.00000e+02 30 90 5.30679e+01
1.00000e+02 1.25893e+02 30 90 6.15644e+01
1.25893e+02 1.58489e+02 30 90 6.82144e+01
1.58489e+02 1.99526e+02 30 90 7.53373e+01
1.99526e+02 2.51189e+02 30 90 8.22843e+01
2.51189e+02 3.16228e+02 30 90 8.36879e+01
3.16228e+02 3.98107e+02 30 90 8.87702e+01
3.98107e+02 5.01187e+02 30 90 9.12304e+01
5.01187e+02 6.30957e+02 30 90 9.64446e+01
6.30957e+02 7.94328e+02 30 90 9.57134e+01
7.94328e+02 1.00000e+03 30 90 9.37339e+01
1.00000e+03 1.25893e+03 30 90 8.73010e+01
1.25893e+03 1.58489e+03 30 90 8.71844e+01
1.58489e+03 1.99526e+03 30 90 8.35509e+01
1.99526e+03 2.51189e+03 30 90 7.45610e+01
2.51189e+03 3.16228e+03 30 90 7.13085e+01
3.16228e+03 3.98107e+03 30 90 6.25617e+01
3.98107e+03 5.01187e+03 30 90 5.31607e+01
5.01187e+03 6.30957e+03 30 90 4.73345e+01
6.30957e+03 7.94328e+03 30 90 4.12733e+01
7.94328e+03 1.00000e+04 30 90 3.26377e+01
1.00000e+04 1.25893e+04 30 90 3.61633e+01
1.25893e+04 1.58489e+04 30 90 1.80786e+01
1.58489e+04 1.99526e+04 30 90 1.18499e+01
1.99526e+04 2.51189e+04 30 90 1.58344e+01
2.51189e+04 3.16228e+04 30 90 8.43110e+00
3.16228e+04 3.98107e+04 30 90 6.87223e+00
3.98107e+04 5.01187e+04 30 90 7.41274e+00
5.01187e+04 6.30957e+04 30 90 2.84241e+00
6.30957e+04 7.94328e+04 30 90 3.01519e+00
7.94328e+04 1.00000e+05 30 90 1.83808e+00
1.00000e+05 1.25893e+05 30 90 1.43576e+00
1.25893e+05 1.58489e+05 30 90 1.73709e+00
1.58489e+05 1.99526e+05 30 90 1.39250e+00
1.99526e+05 2.51189e+05 30 90 9.71566e-01
2.51189e+05 3.16228e+05 30 90 3.52534e-01
3.16228e+05 3.98107e+05 30 90 1.15846e+00
3.98107e+05 5.01187e+05 30 90 2.02506e-01
5.01187e+05 6.30957e+05 30 90 2.13827e-01
6.30957e+05 7.94328e+05 30 90 2.07813e-01
7.94328e+05 1.00000e+06 30 90 2.78187e-01
1.00000e-01 1.25893e-01 -5 30 2.31970e-04
1.25893e-01 1.58489e-01 -5 30 7.72548e-04
1.58489e-01 1.99526e-01 -5 30 2.09013e-03
1.99526e-01 2.51189e-01 -5 30 4.89007e-03
2.51189e-01 3.16228e-01 -5 30 1.01990e-02
3.16228e-01 3.98107e-01 -5 30 1.95476e-02
3.98107e-01 5.01187e-01 -5 30 3.51451e-02
5.01187e-01 6.30957e-01 -5 30 6.01204e-02
6.30957e-01 7.94328e-01 -5 30 1.00773e-01
7.94328e-01 1.00000e+00 -5 30 1.62352e-01
1.00000e+00 1.25893e+00 -5 30 2.58748e-01
1.25893e+00 1.58489e+00 -5 30 4.00444e-01
1.58489e+00 1.99526e+00 -5 30 6.07623e-01
1.99526e+00 2.51189e+00 -5 30 9.08528e-01
2.51189e+00 3.16228e+00 -5 30 1.33151e+00
3.16228e+00 3.98107e+00 -5 30 1.95689e+00
3.98107e+00 5.01187e+00 -5 30 2.76825e+00
5.01187e+00 6.30957e+00 -5 30 3.86364e+00
6.30957e+00 7.94328e+00 -5 30 5.36635e+00
7.94328e+00 1.00000e+01 -5 30 7.30493e+00
1.00000e+01 1.25893e+01 -5 30 9.75684e+00
1.25893e+01 1.58489e+01 -5 30 1.32539e+01
1.58489e+01 1.99526e+01 -5 30 1.69399e+01
1.99526e+01 2.51189e+01 -5 30 2.19323e+01
2.51189e+01 3.16228e+01 -5 30 2.81420e+01
3.16228e+01 3.98107e+01 -5 30 3.56435e+01
3.98107e+01 5.01187e+01 -5 30 4.39230e+01
5.01187e+01 6.30957e+01 -5 30 5.49057e+01
6.30957e+01 7.94328e+01 -5 30 6.70361e+01
7.94328e+01 1.00000e+02 -5 30 8.09445e+01
1.00000e+02 1.25893e+02 -5 30 9.62431e+01
1.25893e+02 1.58489e+02 -5 30 1.16165e+02
1.58489e+02 1.99526e+02 -5 30 1.39773e+02
1.99526e+02 2.51189e+02 -5 30 1.58163e+02
2.51189e+02 3.16228e+02 -5 30 1.86783e+02
3.16228e+02 3.98107e+02 -5 30 2.16701e+02
3.98107e+02 5.01187e+02 -5 30 2.47659e+02
5.01187e+02 6.30957e+02 -5 30 2.79360e+02
6.30957e+02 7.94328e+02 -5 30 3.13589e+02
7.94328e+02 1.00000e+03 -5 30 3.57731e+02
1.00000e+03 1.25893e+03 -5 30 4.06075e+02
1.25893e+03 1.58489e+03 -5 30 4.53822e+02
1.58489e+03 1.99526e+03 -5 30 4.89167e+02
1.99526e+03 2.51189e+03 -5 30 5.52081e+02
2.51189e+03 3.16228e+03 -5 30 5.96457e+02
3.16228e+03 3.98107e+03 -5 30 6.52472e+02
3.98107e+03 5.01187e+03 -5 30 7.26619e+02
5.01187e+03 6.30957e+03 -5 30 7.86901e+02
6.30957e+03 7.94328e+03 -5 30 8.60395e+02
7.94328e+03 1.00000e+04 -5 30 9.29952e+02
1.00000e+04 1.25893e+04 -5 30 9.67656e+02
1.25893e+04 1.58489e+04 -5 30 1.05762e+03
1.58489e+04 1.99526e+04 -5 30 1.17117e+03
1.99526e+04 2.51189e+04 -5 30 1.25118e+03
2.51189e+04 3.16228e+04 -5 30 1.40865e+03
3.16228e+04 3.98107e+04 -5 30 1.38378e+03
3.98107e+04 5.01187e+04 -5 30 1.45969e+03
5.01187e+04 6.30957e+04 -5 30 1.57505e+03
6.30957e+04 7.94328e+04 -5 30 1.72454e+03
7.94328e+04 1.00000e+05 -5 30 1.86391e+03
1.00000e+05 1.25893e+05 -5 30 1.78593e+03
1.25893e+05 1.58489e+05 -5 30 2.13014e+03
1.58489e+05 1.99526e+05 -5 30 2.31377e+03
1.99526e+05 2.51189e+05 -5 30 2.36217e+03
2.51189e+05 3.16228e+05 -5 30 2.31612e+03
3.16228e+05 3.98107e+05 -5 30 2.73005e+03
3.98107e+05 5.01187e+05 -5 30 2.74106e+03
5.01187e+05 6.30957e+05 -5 30 2.86990e+03
6.30957e+05 7.94328e+05 -5 30 3.11560e+03
7.94328e+05 1.00000e+06 -5 30 3.30123e+03
1.00000e-01 1.25893e-01 -30 -5 1.38185e-07
1.25893e-01 1.58489e-01 -30 -5 8.05875e-07
1.58489e-01 1.99526e-01 -30 -5 4.05237e-06
1.99526e-01 2.51189e-01 -30 -5 1.37112e-05
2.51189e-01 3.16228e-01 -30 -5 4.13024e-05
3.16228e-01 3.98107e-01 -30 -5 1.08199e-04
3.98107e-01 5.01187e-01 -30 -5 2.16374e-04
5.01187e-01 6.30957e-01 -30 -5 4.59023e-04
6.30957e-01 7.94328e-01 -30 -5 8.99394e-04
7.94328e-01 1.00000e+00 -30 -5 1.54204e-03
1.00000e+00 1.25893e+00 -30 -5 2.75822e-03
1.25893e+00 1.58489e+00 -30 -5 4.51388e-03
1.58489e+00 1.99526e+00 -30 -5 7.09646e-03
1.99526e+00 2.51189e+00 -30 -5 1.20634e-02
2.51189e+00 3.16228e+00 -30 -5 2.02079e-02
3.16228e+00 3.98107e+00 -30 -5 3.03522e-02
3.98107e+00 5.01187e+00 -30 -5 5.12448e-02
5.01187e+00 6.30957e+00 -30 -5 7.49666e-02
6.30957e+00 7.94328e+00 -30 -5 1.17681e-01
7.94328e+00 1.00000e+01 -30 -5 1.82363e-01
1.00000e+01 1.25893e+01 -30 -5 2.88072e-01
1.25893e+01 1.58489e+01 -30 -5 4.12891e-01
1.58489e+01 1.99526e+01 -30 -5 6.26289e-01
1.99526e+01 2.51189e+01 -30 -5 9.15011e-01
2.51189e+01 3.16228e+01 -30 -5 1.35133e+00
3.16228e+01 3.98107e+01 -30 -5 1.90842e+00
3.98107e+01 5.01187e+01 -30 -5 2.77004e+00
5.01187e+01 6.30957e+01 -30 -5 4.35016e+00
6.30957e+01 7.94328e+01 -30 -5 6.19487e+00
7.94328e+01 1.00000e+02 -30 -5 9.25161e+00
1.00000e+02 1.25893e+02 -30 -5 1.33127e+01
1.25893e+02 1.58489e+02 -30 -5 1.93321e+01
1.58489e+02 1.99526e+02 -30 -5 2.63035e+01
1.99526e+02 2.51189e+02 -30 -5 3.72888e+01
2.51189e+02 3.16228e+02 -30 -5 5.02043e+01
3.16228e+02 3.98107e+02 -30 -5 6.92494e+01
3.98107e+02 5.01187e+02 -30 -5 9.10021e+01
5.01187e+02 6.30957e+02 -30 -5 1.13459e+02
6.30957e+02 7.94328e+02 -30 -5 1.47190e+02
7.94328e+02 1.00000e+03 -30 -5 1.80096e+02
1.00000e+03 1.25893e+03 -30 -5 2.26083e+02
1.25893e+03 1.58489e+03 -30 -5 2.72888e+02
1.58489e+03 1.99526e+03 -30 -5 3.26350e+02
1.99526e+03 2.51189e+03 -30 -5 3.87667e+02
2.51189e+03 3.16228e+03 -30 -5 4.64870e+02
3.16228e+03 3.98107e+03 -30 -5 5.29705e+02
3.98107e+03 5.01187e+03 -30 -5 6.20876e+02
5.01187e+03 6.30957e+03 -30 -5 7.18508e+02
6.30957e+03 7.94328e+03 -30 -5 8.16308e+02
7.94328e+03 1.00000e+04 -30 -5 9.49729e+02
1.00000e+04 1.25893e+04 -30 -5 1.06721e+03
1.25893e+04 1.58489e+04 -30 -5 1.25906e+03
1.58489e+04 1.99526e+04 -30 -5 1.37022e+03
1.99526e+04 2.51189e+04 -30 -5 1.54588e+03
2.51189e+04 3.16228e+04 -30 -5 1.76461e+03
3.16228e+04 3.98107e+04 -30 -5 1.98035e+03
3.98107e+04 5.01187e+04 -30 -5 2.29749e+03
5.01187e+04 6.30957e+04 -30 -5 2.44290e+03
6.30957e+04 7.94328e+04 -30 -5 2.77442e+03
7.94328e+04 1.00000e+05 -30 -5 2.96776e+03
1.00000e+05 1.25893e+05 -30 -5 3.34300e+03
1.25893e+05 1.58489e+05 -30 -5 3.74242e+03
1.58489e+05 1.99526e+05 -30 -5 4.19528e+03
1.99526e+05 2.51189e+05 -30 -5 4.50890e+03
2.51189e+05 3.16228e+05 -30 -5 4.96040e+03
3.16228e+05 3.98107e+05 -30 -5 5.44947e+03
3.98107e+05 5.01187e+05 -30 -5 5.94295e+03
5.01187e+05 6.30957e+05 -30 -5 6.39185e+03
6.30957e+05 7.94328e+05 -30 -5 7.00876e+03
7.94328e+05 1.00000e+06 -30 -5 7.78898e+03
1.99526e+00 2.51189e+00 -90 -30 3.09323e-06
3.98107e+00 5.01187e+00 -90 -30 3.72555e-05
5.01187e+00 6.30957e+00 -90 -30 1.16993e-04
6.30957e+00 7.94328e+00 -90 -30 2.31266e-04
7.94328e+00 1.00000e+01 -90 -30 4.18563e-04
1.00000e+01 1.25893e+01 -90 -30 7.75811e-04
1.25893e+01 1.58489e+01 -90 -30 1.86694e-03
1.58489e+01 1.99526e+01 -90 -30 3.73519e-03
1.99526e+01 2.51189e+01 -90 -30 7.11995e-03
2.51189e+01 3.16228e+01 -90 -30 1.47564e-02
3.16228e+01 3.98107e+01 -90 -30 3.62374e-02
3.98107e+01 5.01187e+01 -90 -30 7.94253e-02
5.01187e+01 6.30957e+01 -90 -30 1.41911e-01
6.30957e+01 7.94328e+01 -90 -30 2.65559e-01
7.94328e+01 1.00000e+02 -90 -30 5.24209e-01
1.00000e+02 1.25893e+02 -90 -30 9.55794e-01
1.25893e+02 1.58489e+02 -90 -30 1.96019e+00
1.58489e+02 1.99526e+02 -90 -30 3.58348e+00
1.99526e+02 2.51189e+02 -90 -30 6.37292e+00
2.51189e+02 3.16228e+02 -90 -30 1.04823e+01
3.16228e+02 3.98107e+02 -90 -30 1.61825e+01
3.98107e+02 5.01187e+02 -90 -30 2.49759e+01
5.01187e+02 6.30957e+02 -90 -30 3.47969e+01
6.30957e+02 7.94328e+02 -90 -30 4.80407e+01
7.94328e+02 1.00000e+03 -90 -30 6.29766e+01
1.00000e+03 1.25893e+03 -90 -30 8.24265e+01
1.25893e+03 1.58489e+03 -90 -30 1.04380e+02
1.58489e+03 1.99526e+03 -90 -30 1.28694e+02
1.99526e+03 2.51189e+03 -90 -30 1.56493e+02
2.51189e+03 3.16228e+03 -90 -30 1.86070e+02
3.16228e+03 3.98107e+03 -90 -30 2.17380e+02
3.98107e+03 5.01187e+03 -90 -30 2.55620e+02
5.01187e+03 6.30957e+03 -90 -30 2.98670e+02
6.30957e+03 7.94328e+03 -90 -30 3.42302e+02
7.94328e+03 1.00000e+04 -90 -30 3.89223e+02
1.00000e+04 1.25893e+04 -90 -30 4.37750e+02
1.25893e+04 1.58489e+04 -90 -30 5.00231e+02
1.58489e+04 1.99526e+04 -90 -30 5.62654e+02
1.99526e+04 2.51189e+04 -90 -30 6.49151e+02
2.51189e+04 3.16228e+04 -90 -30 7.40431e+02
3.16228e+04 3.98107e+04 -90 -30 7.98547e+02
3.98107e+04 5.01187e+04 -90 -30 8.79423e+02
5.01187e+04 6.30957e+04 -90 -30 1.00269e+03
6.30957e+04 7.94328e+04 -90 -30 1.10057e+03
7.94328e+04 1.00000e+05 -90 -30 1.20608e+03
1.00000e+05 1.25893e+05 -90 -30 1.31143e+03
1.25893e+05 1.58489e+05 -90 -30 1.43923e+03
1.58489e+05 1.99526e+05 -90 -30 1.57687e+03
1.99526e+05 2.51189e+05 -90 -30 1.75689e+03
2.51189e+05 3.16228e+05 -90 -30 1.89367e+03
3.16228e+05 3.98107e+05 -90 -30 2.09241e+03
3.98107e+05 5.01187e+05 -90 -30 2.20888e+03
5.01187e+05 6.30957e+05 -90 -30 2.41756e+03
6.30957e+05 7.94328e+05 -90 -30 2.58237e+03
7.94328e+05 1.00000e+06 -90 -30 2.87163e+03
